1.880
1.953
1.970
1.975
1.969
1.978
2.027
2.315
2.489
2.466
2.313
2.187
2.115
2.057
2.013
1.985
1.977
1.983
1.969
1.947
1.943
1.945
1.946
1.953
1.963
1.992
2.291
2.466
2.420
2.289
2.184
2.118
2.066
2.010
1.968
1.951
1.964
1.954
1.939
1.932
1.922
1.926
1.948
1.963
1.971
2.078
2.400
2.532
2.463
2.313
2.186
2.119
2.068
2.005
1.962
1.949
1.943
1.938
1.913
1.904
1.918
1.933
1.936
1.947
1.958
1.988
2.260
2.508
2.515
2.373
2.225
2.119
2.060
2.046
1.989
1.970
1.973
1.967
1.953
1.946
1.939
1.936
1.948
1.973
2.205
2.434
2.456
2.335
2.220
2.193
2.096
2.023
1.969
1.955
1.962
1.950
1.924
1.926
1.929
1.936
1.950
1.972
2.078
2.369
2.515
2.492
2.330
2.203
2.114
2.042
1.966
1.917
1.906
1.912
1.906
1.878
1.874
1.879
1.911
1.954
1.983
1.989
2.139
2.440
2.563
2.493
2.353
2.242
2.176
2.111
2.023
1.963
1.934
1.913
1.894
1.869
1.841
1.837
1.836
1.851
1.873
1.898
1.971
2.338
2.575
2.553
2.410
2.261
2.151
2.063
1.979
1.922
1.910
1.914
1.902
1.866
1.828
1.799
1.809
1.843
1.958
2.382
2.603
2.543
2.375
2.213
2.096
2.005
1.959
1.957
1.956
1.953
1.922
1.903
1.905
1.902
1.905
1.948
2.303
2.581
2.592
2.449
2.283
2.168
2.092
2.059
1.958
1.910
1.888
1.883
1.867
1.853
1.862
1.886
1.897
1.928
2.211
2.541
2.614
2.501
2.333
2.292
2.154
2.047
1.956
1.909
1.893
1.883
1.861
1.843
1.840
1.855
1.873
1.897
1.920
1.937
2.166
2.291
2.495
2.434
2.296
2.171
2.094
2.027
1.960
1.933
1.942
1.945
1.926
1.913
1.903
1.907
1.914
1.918
2.124
2.415
2.502
2.402
2.256
2.142
2.064
2.008
1.968
1.956
1.968
1.956
1.926
1.904
1.894
1.894
1.907
1.918
1.980
2.347
2.590
2.581
2.445
2.319
2.282
2.293
2.297
2.455
3.169
3.269
2.610
2.186
1.042
0.583
0.690
1.029
1.394
1.706
1.919
2.108
2.559
2.849
2.830
2.658
2.488
2.347
2.236
2.199
2.051
1.969
1.933
1.899
1.874
1.862
1.857
1.865
1.894
1.911
1.926
2.041
2.437
2.677
2.743
2.789
3.362
3.502
2.686
1.258
0.610
0.589
0.854
1.198
1.512
1.765
1.948
2.056
2.124
2.180
2.418
2.509
2.656
2.552
2.378
2.252
2.159
2.065
1.997
1.963
1.948
1.933
1.908
1.880
1.865
1.872
1.891
1.899
1.931
1.948
2.076
2.496
2.705
2.628
2.445
2.271
2.161
2.079
1.987
1.927
1.913
1.922
1.922
1.924
1.931
1.926
1.920
1.920
1.925
1.939
1.970
2.257
2.558
2.626
2.514
2.367
2.252
2.169
2.085
2.056
1.955
1.902
1.856
1.803
1.769
1.759
1.758
1.770
1.793
1.823
1.852
2.060
2.497
2.675
2.601
2.534
2.283
2.146
2.041
1.955
1.923
1.922
1.911
1.885
1.860
1.842
1.852
1.868
1.885
2.029
2.386
2.446
2.484
2.353
2.200
2.091
1.994
1.940
1.931
1.931
1.914
1.892
1.875
1.857
1.860
1.872
1.892
1.994
2.482
2.666
2.587
2.413
2.252
2.145
2.060
1.967
1.918
1.906
1.887
1.854
1.828
1.805
1.814
1.824
1.854
1.903
2.252
2.589
2.667
2.555
2.385
2.252
2.156
2.054
1.950
1.892
1.868
1.849
1.827
1.818
1.790
1.796
1.816
1.840
1.870
1.905
2.184
2.568
2.689
2.573
2.384
2.237
2.131
2.040
1.967
1.955
1.937
1.919
1.882
1.854
1.849
1.849
1.858
1.885
2.119
2.467
2.616
2.545
2.381
2.236
2.130
2.093
1.982
1.934
1.919
1.901
1.863
1.829
1.819
1.831
1.838
1.861
2.008
2.420
2.662
2.652
2.501
2.456
2.295
2.167
2.037
1.931
1.872
1.853
1.831
1.796
1.782
1.781
1.786
1.815
1.846
1.875
1.917
2.038
2.546
2.710
2.617
2.438
2.283
2.179
2.076
1.966
1.904
1.873
1.853
1.830
1.797
1.768
1.779
1.783
1.804
1.835
2.070
2.467
2.637
2.575
2.411
2.268
2.166
2.051
1.971
1.935
1.918
1.902
1.876
1.864
1.831
1.827
1.828
1.848
1.918
2.295
2.606
2.672
2.539
2.364
2.222
2.119
2.012
1.938
1.905
1.899
1.870
1.838
1.817
1.815
1.823
1.842
1.873
2.127
2.521
2.706
2.645
2.481
2.332
2.210
2.096
2.060
1.938
1.880
1.847
1.808
1.772
1.767
1.769
1.780
1.797
1.821
1.996
2.462
2.725
2.710
2.563
2.513
2.329
2.182
2.034
1.917
1.857
1.825
1.793
1.756
1.743
1.742
1.760
1.788
1.815
1.851
1.892
1.957
2.492
2.794
2.767
2.574
2.396
2.261
2.144
2.023
1.936
1.896
1.882
1.859
1.824
1.802
1.795
1.795
1.817
1.849
2.077
2.439
2.599
2.542
2.391
2.249
2.136
2.038
1.964
1.935
1.927
1.918
1.886
1.874
1.849
1.841
1.849
1.871
1.941
2.308
2.578
2.588
2.448
2.295
2.180
2.098
2.012
1.944
1.908
1.905
1.891
1.863
1.841
1.843
1.857
1.870
1.883
1.937
2.310
2.614
2.642
2.507
2.348
2.218
2.131
2.103
1.988
1.927
1.904
1.884
1.854
1.834
1.830
1.836
1.857
1.878
1.895
1.914
2.030
2.471
2.716
2.700
2.513
2.330
2.213
2.114
2.009
1.935
1.893
1.886
1.870
1.839
1.824
1.829
1.837
1.854
1.881
1.897
2.232
2.550
2.609
2.483
2.316
2.184
2.088
2.009
1.950
1.931
1.932
1.909
1.883
1.860
1.849
1.850
1.863
1.881
1.951
2.315
2.589
2.605
2.475
2.318
2.201
2.111
2.025
1.947
1.921
1.914
1.892
1.880
1.848
1.833
1.837
1.852
1.870
2.129
2.516
2.671
2.597
2.437
2.296
2.189
2.088
1.984
1.919
1.916
1.890
1.843
1.810
1.791
1.798
1.820
1.845
1.867
2.111
2.498
2.672
2.613
2.471
2.338
2.234
2.199
2.044
1.938
1.892
1.854
1.809
1.773
1.752
1.757
1.778
1.804
1.831
1.863
1.900
2.256
2.658
2.698
2.645
2.480
2.323
2.211
2.102
1.992
1.901
1.861
1.830
1.791
1.767
1.754
1.759
1.781
1.814
1.822
1.855
1.918
2.304
2.719
2.830
2.698
2.505
2.341
2.206
2.072
1.954
1.880
1.851
1.824
1.785
1.774
1.745
1.739
1.758
1.795
1.835
1.867
1.899
1.979
2.463
2.817
2.855
2.683
2.453
2.272
2.141
2.098
1.942
1.864
1.840
1.813
1.773
1.745
1.740
1.759
1.790
1.833
1.873
1.902
1.940
2.104
2.589
2.665
2.694
2.518
2.316
2.158
2.021
1.928
1.886
1.878
1.874
1.849
1.813
1.792
1.794
1.806
1.833
1.847
2.050
2.528
2.751
2.693
2.497
2.290
2.135
2.011
1.935
1.914
1.916
1.909
1.859
1.815
1.803
1.806
1.822
1.853
1.921
2.368
2.739
2.805
2.644
2.440
2.270
2.135
2.015
1.914
1.855
1.833
1.806
1.792
1.751
1.737
1.744
1.768
1.808
1.841
2.089
2.618
2.869
2.828
2.648
2.448
2.281
2.147
2.000
1.956
1.844
1.789
1.740
1.701
1.669
1.666
1.690
1.726
1.769
1.813
1.857
2.109
2.657
2.871
2.781
2.708
2.413
2.212
2.069
1.939
1.858
1.840
1.843
1.824
1.795
1.780
1.763
1.772
1.840
2.249
2.603
2.625
2.540
2.375
2.236
2.107
1.987
1.916
1.899
1.886
1.861
1.823
1.797
1.790
1.800
2.005
2.422
2.499
2.583
2.477
2.334
2.205
2.094
1.996
1.923
1.899
1.939
2.001
2.045
2.050
2.009
1.959
2.121
2.229
2.608
2.686
2.562
2.362
2.161
1.945
1.758
1.652
1.599
1.582
1.574
1.568
1.561
1.564
1.620
1.731
2.208
2.423
2.410
2.305
2.206
2.113
2.013
1.938
1.894
1.886
1.866
1.819
1.789
1.781
1.788
1.803
2.126
2.484
2.604
2.545
2.408
2.280
2.178
2.066
1.977
1.943
1.928
1.904
1.879
1.855
1.850
1.855
1.874
1.902
2.129
2.466
2.595
2.551
2.441
2.329
2.237
2.131
2.041
1.988
1.943
1.889
1.848
1.839
1.817
1.831
1.863
1.889
2.021
2.317
2.466
2.444
2.355
2.261
2.176
2.085
1.999
1.948
1.928
1.917
1.863
1.817
1.788
1.789
1.804
1.819
1.831
1.868
1.918
2.246
2.505
2.501
2.356
2.227
2.150
2.132
2.074
2.049
2.029
1.994
1.939
1.882
1.842
1.845
1.880
1.930
1.967
2.127
2.512
2.612
2.477
2.418
2.213
2.094
2.040
2.018
2.003
1.994
1.988
1.975
1.967
1.972
1.981
2.105
2.348
2.422
2.327
2.282
2.117
2.031
1.991
1.982
1.986
1.995
1.990
1.973
1.952
1.937
1.931
1.948
2.163
2.431
2.471
2.422
2.233
2.100
2.035
1.987
1.960
1.962
1.975
1.974
1.961
1.945
1.942
1.953
1.969
2.141
2.410
2.421
2.325
2.197
2.100
2.042
1.999
1.973
1.970
1.982
1.983
1.972
1.964
1.966
1.964
1.968
2.068
2.148
2.352
2.315
2.190
2.095
2.042
2.001
1.973
1.972
1.975
1.969
1.958
1.943
1.932
1.935
1.939
1.961
2.279
2.444
2.381
2.238
2.121
2.055
2.027
1.998
1.987
1.992
1.989
1.967
1.952
1.938
1.927
1.926
2.009
2.295
2.422
2.356
2.216
2.103
2.052
2.010
1.983
1.994
2.003
1.994
1.974
1.962
1.949
1.950
1.990
2.249
2.426
2.398
2.277
2.165
2.091
2.032
1.984
1.967
1.969
1.977
1.967
1.951
1.951
1.952
1.973
2.205
2.427
2.449
2.368
2.291
2.254
2.228
2.158
2.058
1.977
1.934
1.916
1.896
1.902
1.907
1.948
2.073
2.296
2.432
2.452
2.414
2.340
2.261
2.161
2.063
2.016
1.971
1.928
1.876
1.808
1.789
1.754
1.777
1.832
2.024
2.215
2.228
2.127
2.026
1.976
1.971
1.954
1.916
1.885
1.895
1.930
1.945
2.013
2.055
2.039
1.999
1.992
2.097
2.316
2.420
2.368
2.267
2.182
2.112
2.044
2.003
1.998
1.996
1.974
1.925
1.895
1.907
1.912
1.919
1.985
2.227
2.382
2.370
2.267
2.165
2.109
2.054
1.983
1.966
1.927
1.900
1.890
1.888
1.891
1.904
1.918
1.935
2.155
2.428
2.453
2.330
2.197
2.118
2.084
2.074
2.031
1.997
1.981
1.971
1.960
1.948
1.942
1.935
1.944
1.985
2.240
2.437
2.418
2.291
2.168
2.145
2.081
2.040
2.010
2.001
2.011
2.007
1.978
1.959
1.954
1.942
1.981
2.234
2.380
2.343
2.245
2.216
2.121
2.070
2.016
1.986
1.981
1.977
1.970
1.971
1.961
1.945
1.957
1.978
2.165
2.349
2.342
2.304
2.162
2.097
2.067
2.030
1.997
1.994
2.017
2.042
2.044
2.042
2.036
2.022
2.014
2.019
2.191
2.243
2.300
2.228
2.150
2.099
2.067
2.024
1.988
1.967
1.966
1.963
1.950
1.942
1.951
1.958
1.966
1.972
2.072
2.286
2.365
2.304
2.210
2.148
2.110
2.061
2.023
2.002
1.982
1.978
1.968
1.950
1.952
1.953
1.963
1.975
1.992
2.103
2.305
2.367
2.297
2.207
2.149
2.101
2.049
2.013
1.995
1.980
1.975
1.969
1.952
1.956
1.962
1.962
1.998
2.201
2.358
2.356
2.269
2.179
2.121
2.079
2.022
1.991
1.986
1.984
1.963
1.947
1.940
1.942
1.956
1.969
1.978
1.997
2.199
2.434
2.482
2.393
2.271
2.179
2.122
2.094
2.013
1.973
1.947
1.928
1.927
1.916
1.905
1.918
1.929
1.941
1.947
2.056
2.330
2.446
2.376
2.332
2.192
2.114
2.043
1.997
1.971
1.962
1.961
1.942
1.920
1.912
1.905
1.905
1.962
2.222
2.394
2.391
2.295
2.183
2.112
2.070
2.037
2.024
2.024
2.022
1.991
1.965
1.936
1.905
1.951
2.092
2.374
2.412
2.422
2.345
2.274
2.207
2.123
2.040
1.948
1.849
1.713
1.629
1.618
1.696
1.726
1.748
1.873
1.953
2.155
2.262
2.452
2.553
2.585
2.510
2.333
2.175
2.075
2.010
1.959
1.931
1.889
1.854
1.857
1.889
2.142
2.378
2.486
2.473
2.404
2.269
2.110
1.988
1.909
1.851
1.817
1.764
1.708
1.685
1.682
1.711
1.997
2.280
2.485
2.833
2.981
2.703
2.174
1.680
1.331
1.213
1.236
1.312
1.435
1.580
1.728
1.783
2.069
2.472
2.668
2.640
2.522
2.407
2.324
2.245
2.152
2.078
2.030
1.987
1.958
1.935
1.907
1.905
1.916
1.927
1.937
1.956
1.993
2.249
2.470
2.499
2.408
2.313
2.231
2.140
2.066
2.018
1.986
1.982
1.956
1.917
1.890
1.880
1.878
1.888
1.879
1.900
1.942
1.967
1.971
2.148
2.460
2.563
2.492
2.449
2.294
2.189
2.107
2.022
1.968
1.956
1.938
1.918
1.907
1.902
1.898
1.911
1.924
1.932
1.953
1.963
2.178
2.422
2.484
2.399
2.282
2.188
2.110
2.038
1.987
1.967
1.954
1.950
1.924
1.913
1.907
1.907
1.910
1.933
2.061
2.334
2.491
2.462
2.344
2.244
2.166
2.087
2.024
1.976
1.957
1.951
1.937
1.928
1.885
1.848
1.831
1.847
1.882
1.960
2.284
2.520
2.526
2.410
2.306
2.236
2.181
2.107
2.028
2.009
1.962
1.916
1.875
1.864
1.862
1.866
1.881
1.913
2.086
2.391
2.546
2.506
2.389
2.270
2.170
2.136
2.003
1.913
1.877
1.859
1.857
1.853
1.840
1.817
1.810
1.822
1.842
1.947
2.340
2.570
2.568
2.527
2.344
2.214
2.122
2.033
1.973
1.959
1.946
1.913
1.885
1.860
1.845
1.854
1.881
1.942
2.257
2.343
2.499
2.451
2.324
2.207
2.106
2.006
1.935
1.900
1.883
1.852
1.829
1.819
1.818
1.838
1.868
1.899
2.272
2.577
2.630
2.528
2.401
2.288
2.178
2.062
1.950
1.876
1.848
1.821
1.789
1.773
1.772
1.776
1.805
1.839
2.026
2.419
2.637
2.628
2.509
2.372
2.249
2.133
2.024
1.920
1.865
1.841
1.822
1.819
1.810
1.803
1.805
1.824
1.843
2.098
2.481
2.661
2.630
2.501
2.366
2.242
2.125
1.988
1.900
1.886
1.819
1.760
1.733
1.719
1.725
1.749
1.778
1.832
2.226
2.607
2.730
2.652
2.497
2.340
2.216
2.168
2.006
1.914
1.867
1.819
1.778
1.754
1.737
1.729
1.736
1.749
1.864
2.310
2.605
2.652
2.550
2.505
2.326
2.188
2.055
1.957
1.915
1.883
1.837
1.800
1.775
1.766
1.780
1.805
2.026
2.408
2.618
2.610
2.478
2.340
2.218
2.094
1.992
1.926
1.896
1.868
1.821
1.780
1.766
1.762
1.777
1.956
2.358
2.436
2.585
2.517
2.383
2.286
2.175
2.033
1.931
1.881
1.846
1.812
1.770
1.735
1.734
1.746
1.766
1.845
2.354
2.667
2.722
2.610
2.451
2.321
2.204
2.067
1.943
1.868
1.804
1.746
1.695
1.649
1.637
1.645
1.687
1.758
2.133
2.527
2.713
2.691
2.553
2.405
2.280
2.129
2.001
1.921
1.863
1.811
1.775
1.765
1.744
1.744
1.753
1.778
2.086
2.466
2.660
2.652
2.530
2.383
2.245
2.103
1.971
1.882
1.837
1.821
1.772
1.743
1.734
1.734
1.748
1.918
2.340
2.656
2.729
2.632
2.486
2.339
2.181
2.017
1.893
1.870
1.802
1.740
1.690
1.675
1.689
1.707
1.752
2.058
2.508
2.762
2.768
2.631
2.482
2.335
2.158
2.097
1.921
1.824
1.761
1.710
1.674
1.660
1.682
1.700
1.726
1.865
2.321
2.714
2.862
2.785
2.631
2.580
2.357
2.135
1.952
1.829
1.741
1.684
1.636
1.602
1.613
1.650
1.690
1.736
1.778
1.927
2.378
2.496
2.721
2.675
2.533
2.378
2.229
2.072
1.939
1.854
1.799
1.749
1.702
1.688
1.685
1.698
1.746
1.796
2.235
2.619
2.739
2.653
2.501
2.348
2.176
2.011
1.898
1.825
1.781
1.741
1.706
1.698
1.701
1.706
1.747
1.895
2.348
2.741
2.854
2.751
2.573
2.404
2.229
2.036
1.888
1.792
1.732
1.684
1.647
1.640
1.639
1.668
1.704
1.753
1.843
2.314
2.768
2.932
2.845
2.656
2.475
2.306
2.128
1.963
1.851
1.830
1.770
1.712
1.669
1.666
1.676
1.704
1.750
1.793
2.091
2.595
2.870
2.844
2.675
2.475
2.301
2.248
2.031
1.887
1.818
1.763
1.712
1.678
1.654
1.629
1.604
1.607
1.641
1.802
2.438
2.761
2.721
2.658
2.375
2.189
2.060
1.955
1.910
1.924
1.929
1.909
1.892
1.873
1.868
1.881
1.898
2.131
2.624
2.684
2.650
2.448
2.221
2.032
1.866
1.748
1.710
1.744
1.780
1.774
1.769
1.794
1.870
1.968
2.055
2.132
2.748
3.078
3.048
2.835
2.606
2.405
2.241
2.070
1.934
1.836
1.770
1.715
1.670
1.648
1.642
1.646
1.674
1.686
1.719
2.140
2.607
2.798
2.745
2.577
2.405
2.275
2.114
1.948
1.838
1.775
1.721
1.705
1.657
1.630
1.641
1.672
1.708
1.757
2.050
2.567
2.843
2.837
2.671
2.472
2.301
2.135
1.982
1.953
1.861
1.804
1.759
1.719
1.709
1.722
1.740
1.766
1.902
2.332
2.610
2.629
2.473
2.317
2.154
2.090
1.833
1.711
1.681
1.676
1.682
1.699
1.712
1.748
1.808
1.910
2.442
2.857
2.836
2.605
2.372
2.309
2.135
2.029
1.981
1.969
1.964
1.932
1.890
1.872
1.877
1.916
1.991
2.358
2.622
2.598
2.420
2.358
2.189
2.096
2.028
1.990
1.986
1.982
1.970
1.944
1.919
1.917
1.922
1.935
2.163
2.426
2.457
2.417
2.248
2.135
2.077
2.019
1.962
1.941
1.955
1.949
1.928
1.917
1.907
1.894
1.902
1.950
2.232
2.297
2.360
2.272
2.172
2.097
2.035
1.978
1.955
1.960
1.979
1.972
1.945
1.941
1.935
1.931
1.982
2.079
2.353
2.374
2.278
2.170
2.099
2.050
1.995
1.964
1.962
1.950
1.929
1.922
1.911
1.911
1.932
1.957
2.279
2.454
2.404
2.277
2.180
2.113
2.053
2.006
1.977
1.967
1.964
1.951
1.922
1.916
1.925
1.927
1.955
2.131
2.400
2.489
2.419
2.295
2.195
2.129
2.053
1.971
1.922
1.909
1.905
1.899
1.886
1.885
1.895
1.907
1.924
1.943
1.953
2.150
2.452
2.523
2.401
2.263
2.158
2.090
2.029
1.982
1.955
1.956
1.957
1.936
1.921
1.920
1.918
1.926
1.943
2.064
2.333
2.462
2.399
2.273
2.173
2.103
2.037
2.022
1.983
1.971
1.960
1.930
1.900
1.900
1.901
1.915
1.939
2.099
2.403
2.530
2.460
2.319
2.204
2.180
2.082
2.009
1.964
1.940
1.927
1.917
1.900
1.905
1.925
1.936
1.934
2.055
2.361
2.528
2.490
2.447
2.271
2.159
2.073
1.988
1.940
1.920
1.901
1.885
1.865
1.846
1.850
1.870
1.882
1.904
2.123
2.237
2.473
2.450
2.319
2.201
2.126
2.040
1.949
1.903
1.878
1.857
1.843
1.828
1.828
1.848
1.858
1.862
1.900
2.239
2.559
2.613
2.481
2.309
2.188
2.090
1.997
1.941
1.933
1.932
1.920
1.898
1.866
1.862
1.864
1.870
1.988
2.380
2.602
2.576
2.436
2.278
2.152
2.054
1.965
1.912
1.910
1.898
1.859
1.851
1.828
1.818
1.825
1.856
2.099
2.500
2.675
2.616
2.455
2.302
2.190
2.094
2.000
1.920
1.880
1.871
1.822
1.786
1.783
1.792
1.813
1.843
1.866
2.040
2.495
2.729
2.692
2.528
2.345
2.191
2.066
2.029
1.897
1.843
1.818
1.767
1.720
1.684
1.684
1.750
1.839
1.916
2.232
2.635
2.740
2.617
2.442
2.392
2.223
2.103
2.015
1.967
1.946
1.902
1.849
1.818
1.802
1.795
1.806
1.947
2.355
2.615
2.607
2.558
2.365
2.224
2.101
2.003
1.946
1.913
1.836
1.738
1.680
1.603
1.600
1.654
1.764
1.942
2.518
2.631
2.759
2.612
2.427
2.282
2.141
2.013
1.946
1.915
1.873
1.783
1.646
1.558
1.557
1.597
1.666
1.703
2.204
2.681
2.872
2.789
2.590
2.401
2.216
2.046
1.915
1.849
1.821
1.796
1.754
1.712
1.690
1.691
1.704
1.823
2.347
2.733
2.807
2.669
2.465
2.274
2.105
1.931
1.825
1.793
1.793
1.794
1.791
1.791
1.799
1.808
1.805
1.813
1.838
2.086
2.619
2.915
2.891
2.697
2.475
2.298
2.130
1.967
1.854
1.835
1.776
1.724
1.674
1.660
1.657
1.670
1.707
1.758
1.804
2.014
2.580
2.885
2.878
2.690
2.468
2.401
2.173
1.989
1.855
1.808
1.783
1.752
1.724
1.699
1.696
1.716
1.749
1.885
2.390
2.734
2.770
2.716
2.453
2.248
2.073
1.934
1.859
1.845
1.833
1.791
1.757
1.733
1.723
1.745
1.797
2.236
2.690
2.738
2.694
2.514
2.341
2.174
2.017
1.900
1.837
1.808
1.773
1.719
1.687
1.687
1.694
1.721
1.790
1.959
2.589
2.805
2.716
2.521
2.350
2.195
2.031
1.893
1.801
1.755
1.734
1.704
1.676
1.680
1.699
1.711
1.782
2.218
2.688
2.848
2.758
2.572
2.401
2.249
2.084
1.956
1.892
1.852
1.803
1.752
1.703
1.696
1.689
1.700
1.916
2.430
2.754
2.780
2.634
2.434
2.264
2.120
1.956
1.839
1.791
1.755
1.713
1.701
1.671
1.674
1.701
1.739
1.953
2.480
2.733
2.697
2.538
2.379
2.248
2.127
2.002
1.909
1.860
1.850
1.796
1.749
1.742
1.744
1.760
1.786
1.814
1.869
2.327
2.730
2.794
2.645
2.445
2.283
2.165
2.125
1.969
1.899
1.874
1.850
1.824
1.792
1.776
1.788
1.817
1.851
2.189
2.562
2.662
2.550
2.380
2.330
2.169
2.034
1.951
1.930
1.928
1.905
1.863
1.840
1.821
1.821
1.838
1.975
2.381
2.649
2.639
2.588
2.386
2.249
2.123
2.020
1.951
1.912
1.880
1.836
1.787
1.773
1.771
1.788
1.819
1.851
2.040
2.188
2.590
2.638
2.513
2.372
2.251
2.144
2.029
1.926
1.875
1.842
1.796
1.750
1.731
1.728
1.739
1.749
1.846
2.266
2.601
2.667
2.553
2.397
2.252
2.135
2.018
1.919
1.870
1.839
1.800
1.765
1.745
1.739
1.742
1.778
1.809
1.847
1.891
2.230
2.699
2.860
2.735
2.510
2.306
2.160
2.042
1.951
1.905
1.898
1.877
1.835
1.796
1.788
1.797
1.804
1.824
2.025
2.452
2.703
2.697
2.526
2.344
2.203
2.074
2.042
1.946
1.881
1.789
1.697
1.619
1.549
1.533
1.572
1.659
1.950
2.689
3.083
3.034
2.786
2.549
2.489
2.275
2.082
1.964
1.905
1.851
1.798
1.742
1.696
1.693
1.723
1.757
1.791
1.836
2.143
2.627
2.710
2.766
2.630
2.475
2.330
2.204
2.053
1.934
1.855
1.809
1.757
1.696
1.655
1.645
1.628
1.612
1.618
1.655
2.091
2.599
2.757
2.640
2.435
2.264
2.141
2.017
1.911
1.852
1.838
1.820
1.809
1.798
1.791
1.784
1.791
1.812
1.837
1.872
1.986
2.561
2.942
2.938
2.718
2.469
2.257
2.072
1.935
1.864
1.857
1.844
1.818
1.778
1.743
1.728
1.733
1.762
1.966
2.502
2.811
2.803
2.599
2.367
2.181
2.011
1.977
1.897
1.852
1.815
1.772
1.729
1.706
1.717
1.740
1.838
2.390
2.812
2.899
2.742
2.504
2.305
2.249
2.038
1.894
1.824
1.791
1.750
1.715
1.690
1.688
1.706
1.733
1.795
2.257
2.727
2.888
2.789
2.723
2.460
2.254
2.067
1.900
1.797
1.747
1.711
1.673
1.652
1.647
1.662
1.695
1.728
1.830
2.366
2.489
2.698
2.611
2.429
2.253
2.098
1.955
1.870
1.852
1.858
1.818
1.775
1.748
1.738
1.750
1.784
1.873
2.450
2.787
2.792
2.610
2.403
2.230
2.062
1.921
1.848
1.816
1.790
1.745
1.713
1.704
1.711
1.713
1.756
2.210
2.708
2.906
2.823
2.629
2.445
2.280
2.104
1.934
1.830
1.760
1.712
1.666
1.624
1.622
1.630
1.658
1.706
2.057
2.613
2.933
2.930
2.743
2.542
2.363
2.171
1.956
1.805
1.724
1.676
1.664
1.622
1.600
1.612
1.646
1.689
1.737
1.807
2.274
2.802
3.018
2.924
2.704
2.474
2.285
2.102
2.046
1.864
1.778
1.727
1.669
1.634
1.633
1.639
1.659
1.799
2.309
2.703
2.799
2.658
2.458
2.281
2.224
1.998
1.886
1.844
1.818
1.785
1.754
1.720
1.719
1.731
1.892
2.429
2.865
2.970
2.820
2.579
2.497
2.187
1.932
1.773
1.701
1.668
1.625
1.584
1.574
1.592
1.635
1.702
2.049
2.653
3.008
3.005
2.922
2.611
2.373
2.149
1.936
1.784
1.700
1.659
1.614
1.571
1.564
1.589
1.619
1.668
1.874
2.451
2.590
2.840
2.766
2.571
2.371
2.177
1.976
1.826
1.735
1.672
1.631
1.596
1.580
1.589
1.626
1.670
1.692
1.933
2.525
2.916
2.939
2.750
2.520
2.308
2.105
1.934
1.836
1.800
1.775
1.744
1.698
1.680
1.684
1.711
1.761
2.129
2.669
2.935
2.895
2.673
2.428
2.217
2.022
1.866
1.801
1.777
1.752
1.724
1.713
1.691
1.692
1.713
1.997
2.576
2.923
2.943
2.761
2.531
2.317
2.109
1.912
1.776
1.712
1.676
1.663
1.621
1.614
1.625
1.652
1.780
2.360
2.849
2.996
2.857
2.612
2.364
2.130
1.906
1.751
1.679
1.677
1.686
1.704
1.723
1.724
1.682
1.648
1.687
2.212
2.726
2.976
2.958
2.753
2.460
2.156
1.885
1.835
1.743
1.761
1.807
1.825
1.794
1.729
1.652
1.619
1.912
2.478
2.852
2.941
2.814
2.580
2.312
2.218
1.870
1.718
1.703
1.712
1.732
1.736
1.693
1.630
1.589
1.648
2.196
2.702
2.947
2.963
2.828
2.748
2.358
2.030
1.791
1.665
1.623
1.590
1.574
1.605
1.681
1.750
1.784
1.925
2.371
2.764
2.896
2.874
2.748
2.620
2.394
2.091
1.812
1.634
1.569
1.558
1.571
1.626
1.678
1.688
1.676
1.689
2.132
2.348
2.912
2.983
2.747
2.433
2.175
1.965
1.838
1.785
1.742
1.673
1.587
1.526
1.518
1.543
1.583
1.600
1.718
2.271
2.756
2.937
2.836
2.602
2.356
2.125
1.940
1.826
1.796
1.813
1.819
1.796
1.763
1.755
1.734
1.736
1.748
1.903
2.444
2.774
2.794
2.629
2.422
2.258
2.109
1.992
1.930
1.914
1.895
1.880
1.815
1.773
1.764
1.769
1.786
1.884
2.319
2.615
2.634
2.499
2.354
2.259
2.181
2.079
1.991
1.971
1.912
1.871
1.829
1.801
1.805
1.810
1.818
1.857
2.004
2.442
2.729
2.716
2.535
2.351
2.218
2.182
2.029
1.938
1.897
1.886
1.872
1.842
1.823
1.820
1.823
1.836
1.864
1.917
2.297
2.659
2.686
2.635
2.396
2.227
2.111
2.019
1.936
1.898
1.894
1.879
1.852
1.835
1.820
1.813
1.825
1.849
1.876
1.888
1.967
2.458
2.787
2.774
2.576
2.368
2.211
2.085
1.970
1.901
1.874
1.881
1.879
1.848
1.825
1.823
1.819
1.826
1.851
2.156
2.574
2.708
2.585
2.391
2.230
2.109
2.009
1.927
1.893
1.881
1.870
1.861
1.822
1.808
1.813
1.828
1.854
1.891
1.925
2.003
2.554
2.913
2.890
2.657
2.396
2.212
2.087
2.046
1.910
1.858
1.845
1.828
1.809
1.778
1.763
1.774
1.789
1.821
1.864
1.902
2.114
2.705
2.925
2.882
2.595
2.352
2.165
2.038
1.922
1.845
1.819
1.814
1.794
1.767
1.747
1.748
1.768
1.798
1.836
1.892
2.477
2.784
2.747
2.532
2.307
2.145
2.028
1.911
1.860
1.871
1.875
1.857
1.844
1.828
1.822
1.822
1.807
1.810
2.195
2.655
2.753
2.620
2.436
2.292
2.187
2.071
1.966
1.919
1.898
1.858
1.811
1.796
1.743
1.732
1.757
1.809
2.086
2.667
2.907
2.867
2.675
2.442
2.226
2.049
1.886
1.786
1.756
1.754
1.753
1.748
1.742
1.745
1.754
1.765
2.024
2.500
2.706
2.639
2.463
2.293
2.161
2.051
1.951
1.935
1.903
1.870
1.815
1.768
1.735
1.727
1.747
1.785
2.147
2.660
2.886
2.823
2.629
2.431
2.259
2.204
1.996
1.857
1.791
1.751
1.698
1.651
1.633
1.639
1.674
